#Note: P1-P5 are absolute pressures
#Note: Ullage pressure in tank is 0.75 bar
#Time     P1      P2     P3       P4      P5
-0.0200	75834.4	75324.3	75007.7	75005.8	75003.3
-0.0199	75838.0	75329.4	75007.2	75005.5	75003.5
-0.0198	75840.7	75331.1	75005.0	75004.1	75002.4
-0.0197	75845.7	75336.9	75007.1	75005.4	75002.9
-0.0196	75849.3	75340.2	75006.8	75005.0	75002.7
-0.0195	75851.9	75342.1	75005.1	75004.0	75002.0
-0.0194	75854.9	75346.1	75006.1	75004.6	75002.1
-0.0193	75859.7	75351.3	75007.5	75005.3	75002.0
-0.0192	75862.7	75354.6	75006.6	75004.6	75001.8
-0.0191	75864.5	75355.9	75004.8	75003.7	75001.7
-0.0190	75868.0	75360.4	75004.6	75002.8	75000.6
-0.0189	75870.3	75362.4	75003.3	75002.0	75000.1
-0.0188	75874.6	75366.5	75003.2	75001.8	74999.5
-0.0187	75879.7	75373.1	75004.5	75002.7	75000.4
-0.0186	75883.5	75376.0	75003.6	75002.3	75000.2
-0.0185	75887.9	75381.9	75004.4	75003.1	75001.1
-0.0184	75892.7	75387.3	75005.4	75003.9	75001.5
-0.0183	75898.5	75394.4	75008.1	75006.2	75002.5
-0.0182	75905.5	75403.0	75011.8	75008.8	75005.1
-0.0181	75906.7	75403.4	75008.0	75007.2	75005.0
-0.0180	75911.9	75410.7	75009.2	75007.5	75005.0
-0.0179	75915.4	75415.0	75009.5	75007.4	75004.4
-0.0178	75919.3	75418.4	75008.7	75007.4	75005.2
-0.0177	75922.8	75422.2	75008.8	75007.4	75005.0
-0.0176	75927.0	75426.7	75009.4	75007.7	75005.1
-0.0175	75930.8	75430.6	75009.2	75007.7	75005.2
-0.0174	75935.3	75435.6	75009.9	75007.9	75004.6
-0.0173	75940.2	75441.7	75012.5	75010.5	75006.6
-0.0172	75945.4	75447.1	75012.8	75009.9	75006.2
-0.0171	75946.7	75447.9	75010.0	75008.7	75005.9
-0.0170	75950.1	75452.7	75010.2	75007.8	75004.5
-0.0169	75952.4	75455.9	75009.1	75007.3	75004.7
-0.0168	75955.1	75458.4	75006.5	75005.5	75003.3
-0.0167	75959.8	75464.7	75007.3	75005.6	75003.0
-0.0166	75964.4	75469.4	75007.1	75005.4	75002.6
-0.0165	75970.5	75476.5	75008.5	75006.3	75002.8
-0.0164	75975.0	75481.9	75009.4	75007.3	75004.2
-0.0163	75979.5	75487.2	75008.9	75007.9	75004.4
-0.0162	75985.6	75496.2	75013.0	75009.6	75005.3
-0.0161	75988.8	75499.1	75010.8	75008.9	75005.0
-0.0160	75992.9	75503.8	75012.0	75010.0	75006.8
-0.0159	75996.3	75507.5	75010.1	75008.4	75005.5
-0.0158	76000.1	75511.2	75009.3	75008.0	75005.1
-0.0157	76003.5	75515.8	75010.2	75008.2	75004.4
-0.0156	76008.9	75522.1	75011.6	75009.4	75005.5
-0.0155	76012.3	75526.1	75011.0	75009.0	75005.7
-0.0154	76017.0	75530.6	75010.5	75008.8	75005.4
-0.0153	76020.7	75535.4	75011.2	75009.7	75005.7
-0.0152	76027.0	75543.4	75013.9	75009.9	75004.3
-0.0151	76030.4	75547.0	75012.9	75011.1	75007.4
-0.0150	76032.6	75549.9	75009.7	75008.3	75005.1
-0.0149	76036.3	75555.0	75009.6	75007.6	75004.2
-0.0148	76040.1	75559.9	75008.6	75006.5	75001.9
-0.0147	76046.2	75566.9	75010.3	75008.1	75003.8
-0.0146	76048.9	75570.3	75008.1	75006.3	75002.6
-0.0145	76053.3	75576.2	75008.2	75006.2	75002.5
-0.0144	76057.1	75581.5	75007.8	75005.6	75001.7
-0.0143	76062.0	75587.0	75008.2	75006.2	75001.0
-0.0142	76068.6	75595.2	75012.9	75009.1	75003.8
-0.0141	76070.2	75596.0	75007.8	75007.0	75003.4
-0.0140	76074.4	75601.8	75009.2	75007.1	75002.9
-0.0139	76079.9	75608.8	75010.6	75007.3	75001.8
-0.0138	76084.3	75613.2	75009.8	75007.8	75003.6
-0.0137	76088.7	75617.9	75009.3	75007.2	75002.8
-0.0136	76092.9	75623.2	75009.3	75007.1	75002.9
-0.0135	76096.3	75627.8	75008.7	75007.0	75002.8
-0.0134	76101.3	75634.6	75010.4	75007.7	75002.0
-0.0133	76107.5	75642.5	75012.9	75010.6	75005.7
-0.0132	76111.9	75647.4	75012.7	75010.1	75005.0
-0.0131	76118.5	75655.6	75013.4	75011.4	75005.3
-0.0130	76125.3	75664.1	75015.9	75012.7	75006.2
-0.0129	76128.4	75667.9	75013.4	75011.3	75006.2
-0.0128	76133.7	75674.3	75012.4	75010.2	75005.2
-0.0127	76135.6	75677.5	75011.6	75009.2	75004.3
-0.0126	76138.8	75681.6	75010.3	75008.3	75003.6
-0.0125	76143.7	75688.2	75011.7	75008.8	75002.6
-0.0124	76149.6	75694.6	75013.2	75010.4	75005.2
-0.0123	76153.7	75698.9	75011.3	75010.1	75005.2
-0.0122	76160.2	75708.0	75016.4	75012.3	75004.0
-0.0121	76167.0	75715.3	75017.4	75014.9	75007.8
-0.0120	76169.2	75718.8	75014.8	75012.9	75006.9
-0.0119	76174.6	75725.2	75015.3	75012.3	75006.1
-0.0118	76177.0	75728.7	75012.5	75010.4	75004.8
-0.0117	76180.8	75733.9	75012.1	75009.7	75004.0
-0.0116	76186.4	75741.7	75012.8	75010.4	75003.5
-0.0115	76192.4	75749.2	75014.8	75011.9	75005.9
-0.0114	76197.1	75754.4	75013.0	75011.3	75005.4
-0.0113	76206.2	75767.1	75019.4	75014.5	75005.7
-0.0112	76212.8	75774.0	75020.2	75016.9	75008.8
-0.0111	76216.7	75779.0	75018.6	75016.3	75008.7
-0.0110	76220.5	75784.1	75018.1	75015.0	75007.5
-0.0109	76221.4	75786.1	75014.7	75012.6	75006.0
-0.0108	76223.8	75790.1	75014.7	75011.8	75004.4
-0.0107	76229.3	75797.9	75016.9	75012.9	75004.4
-0.0106	76235.1	75803.8	75015.4	75012.2	75005.5
-0.0105	76239.2	75808.3	75014.5	75012.9	75003.4
-0.0104	76249.5	75822.0	75021.6	75016.8	75006.1
-0.0103	76252.5	75825.4	75019.0	75016.2	75007.6
-0.0102	76259.4	75834.4	75021.3	75016.8	75007.1
-0.0101	76263.1	75839.5	75019.1	75015.1	75006.4
-0.0100	76265.7	75843.8	75018.0	75013.7	75005.1
-0.0099	76269.9	75849.7	75016.8	75012.3	75002.2
-0.0098	76276.5	75858.8	75018.6	75014.5	75004.6
-0.0097	76280.2	75863.6	75017.5	75012.4	75004.5
-0.0096	76285.4	75870.9	75021.4	75014.3	75001.4
-0.0095	76295.2	75881.8	75026.0	75018.6	75006.3
-0.0094	76298.4	75886.4	75025.4	75017.6	75006.4
-0.0093	76306.0	75895.3	75028.4	75017.6	75006.4
-0.0092	76308.1	75898.9	75032.1	75016.1	75005.0
-0.0091	76311.7	75903.7	75033.2	75014.8	75004.1
-0.0090	76313.9	75908.4	75035.8	75013.8	75000.5
-0.0089	76320.7	75917.2	75046.3	75015.6	75004.0
-0.0088	76323.3	75920.2	75045.7	75012.8	75002.0
-0.0087	76332.8	75933.8	75064.7	75015.6	74999.8
-0.0086	76340.0	75940.5	75073.4	75018.3	75004.4
-0.0085	76346.6	75950.1	75088.0	75018.6	75004.3
-0.0084	76352.4	75957.6	75097.9	75018.1	75004.1
-0.0083	76355.6	75963.0	75112.7	75017.4	75003.5
-0.0082	76359.4	75968.7	75123.0	75016.6	75001.8
-0.0081	76364.6	75976.4	75134.5	75019.0	75002.3
-0.0080	76370.9	75983.2	75140.8	75018.2	75004.5
-0.0079	76375.4	75988.9	75149.0	75019.3	75000.3
-0.0078	76386.6	76004.2	75169.0	75024.4	75003.3
-0.0077	76390.6	76008.3	75173.8	75024.9	75006.2
-0.0076	76398.2	76018.3	75183.9	75025.1	75006.1
-0.0075	76401.1	76022.7	75191.4	75024.1	75005.4
-0.0074	76404.4	76028.4	75201.4	75022.3	75004.1
-0.0073	76408.0	76034.0	75211.0	75021.7	74998.8
-0.0072	76417.1	76046.7	75230.4	75025.4	75004.7
-0.0071	76421.2	76050.9	75234.9	75022.0	75003.9
-0.0070	76428.8	76061.6	75258.6	75025.8	74997.7
-0.0069	76441.1	76076.5	75272.8	75031.4	75004.7
-0.0068	76444.6	76081.7	75281.2	75032.0	75005.8
-0.0067	76451.1	76089.5	75288.3	75031.6	75005.6
-0.0066	76451.9	76092.5	75293.4	75029.6	75004.0
-0.0065	76454.3	76096.9	75300.6	75027.0	75000.6
-0.0064	76459.7	76106.5	75312.9	75029.8	74999.4
-0.0063	76467.8	76114.4	75319.5	75028.8	75002.8
-0.0062	76472.4	76120.1	75327.0	75027.3	75000.4
-0.0061	76482.9	76135.6	75349.0	75033.2	74995.2
-0.0060	76495.0	76149.1	75366.4	75040.6	75003.6
-0.0059	76498.8	76156.5	75381.1	75042.1	75004.6
-0.0058	76505.9	76164.4	75393.1	75041.0	75003.7
-0.0057	76508.0	76169.8	75407.3	75038.9	75001.6
-0.0056	76512.1	76176.3	75417.1	75039.0	74992.4
-0.0055	76522.5	76189.3	75431.1	75042.8	75001.7
-0.0054	76523.8	76191.0	75433.6	75039.1	75000.8
-0.0053	76530.4	76198.9	75443.5	75042.2	74988.9
-0.0052	76541.3	76217.6	75472.9	75053.4	74994.4
-0.0051	76550.6	76226.7	75484.4	75060.1	75001.9
-0.0050	76559.6	76238.2	75499.4	75062.8	75003.7
-0.0049	76565.9	76246.5	75511.6	75060.7	75001.5
-0.0048	76570.7	76253.5	75521.4	75057.0	74997.0
-0.0047	76576.5	76264.5	75543.0	75061.0	74990.3
-0.0046	76584.5	76272.2	75552.6	75061.1	74998.5
-0.0045	76588.9	76280.3	75569.2	75056.0	74995.5
-0.0044	76593.8	76286.8	75583.5	75067.8	74976.3
-0.0043	76612.5	76313.0	75616.7	75087.8	74990.7
-0.0042	76623.1	76326.1	75636.4	75099.8	74998.9
-0.0041	76636.0	76340.8	75655.1	75103.9	74999.3
-0.0040	76644.1	76350.0	75664.6	75100.8	74994.5
-0.0039	76644.4	76351.8	75669.4	75098.5	74976.6
-0.0038	76650.2	76365.0	75693.9	75102.9	74984.0
-0.0037	76651.9	76365.5	75696.8	75097.6	74986.6
-0.0036	76651.3	76367.2	75703.1	75090.1	74980.8
-0.0035	76661.7	76386.5	75745.6	75120.7	74948.4
-0.0034	76697.0	76429.6	75801.3	75165.0	74973.0
-0.0033	76724.8	76461.0	75841.8	75193.2	74987.0
-0.0032	76748.8	76485.5	75868.6	75207.2	74984.5
-0.0031	76755.8	76495.0	75883.3	75210.7	74974.7
-0.0030	76753.0	76495.3	75889.7	75212.8	74951.3
-0.0029	76750.3	76500.3	75905.9	75215.4	74966.4
-0.0028	76745.1	76496.1	75906.2	75206.7	74968.8
-0.0027	76748.4	76500.5	75913.0	75203.5	74928.6
-0.0026	76777.2	76549.9	76007.4	75304.4	74880.6
-0.0025	76868.1	76656.5	76141.6	75443.1	74940.0
-0.0024	76942.2	76743.1	76261.5	75569.0	74952.3
-0.0023	77019.6	76831.0	76375.9	75686.0	74952.8
-0.0022	77070.4	76891.7	76458.9	75774.5	74967.2
-0.0021	77083.0	76911.4	76496.6	75814.7	74960.1
-0.0020	77078.3	76916.1	76515.9	75833.0	74938.8
-0.0019	77067.6	76909.0	76514.4	75825.5	74959.3
-0.0018	77050.6	76891.8	76498.5	75806.8	74883.9
-0.0017	77091.4	76993.1	76761.0	76311.3	74365.9
-0.0016	77525.9	77595.0	77631.1	77338.5	74639.9
-0.0015	78106.4	78291.5	78610.6	78617.9	74859.2
-0.0014	78811.9	79118.4	79722.9	80055.9	74962.2
-0.0013	79574.4	80003.7	80880.1	81530.9	75026.9
-0.0012	80193.6	80770.1	81966.4	83034.1	75064.5
-0.0011	80741.2	81473.2	82991.6	84468.7	75094.9
-0.0010	81193.8	82092.7	83952.9	85864.8	75117.6
-0.0009	81623.6	82663.2	84816.4	87140.2	75113.6
-0.0008	82055.9	83189.9	85560.9	88242.1	75186.5
-0.0007	82476.9	83697.5	86271.6	89247.4	75155.8
-0.0006	82843.6	84107.7	86804.2	90065.4	75165.2
-0.0005	83091.6	84413.3	87239.5	90732.2	75190.2
-0.0004	83198.9	84576.3	87522.6	91279.1	75227.6
-0.0003	83190.7	84580.9	87546.8	91500.3	77410.3
-0.0002	83114.4	84520.6	87504.5	91544.6	87457.5
-0.0001	83039.3	84432.9	87404.7	91565.9	91053.7
0.0000	82976.7	84305.0	87149.2	91289.7	93633.8
0.0001	82821.1	84097.5	86834.2	90890.4	96954.8
0.0002	82590.8	83810.3	86432.1	90390.7	97874.9
0.0003	82269.0	83425.0	85911.1	89752.8	97484.0
0.0004	81937.0	83045.5	85404.6	89039.8	97007.0
0.0005	81553.2	82566.1	84750.6	88263.8	97371.8
0.0006	81225.3	82139.5	84095.9	87265.0	96165.8
0.0007	80822.5	81646.2	83436.7	86358.3	94528.0
0.0008	80473.7	81182.4	82723.6	85330.6	93998.2
0.0009	80022.4	80632.8	81973.9	84245.1	92302.1
0.0010	79576.0	80086.9	81221.1	83184.3	90121.6
0.0011	79112.9	79531.9	80467.5	82122.1	88799.5
0.0012	78681.7	79002.9	79730.9	81032.4	87222.9
0.0013	78273.8	78495.2	79025.8	79995.5	85610.1
0.0014	77918.9	78038.7	78366.8	79008.3	84282.9
0.0015	77565.6	77593.7	77735.0	78054.1	82933.7
0.0016	77205.4	77146.3	77110.6	77124.4	81496.5
0.0017	76842.6	76711.9	76526.5	76265.2	80142.2
0.0018	76505.1	76306.1	75978.0	75464.7	78738.8
0.0019	76208.9	75945.4	75483.4	74704.3	77518.9
0.0020	75954.2	75632.5	75060.6	74108.2	76557.7
0.0021	75760.8	75377.5	74675.8	73475.2	75737.7
0.0022	75557.1	75125.7	74340.1	72975.2	74890.5
0.0023	75395.8	74918.2	74032.9	72487.4	74222.9
0.0024	75225.3	74724.8	73791.5	72111.9	73618.1
0.0025	75095.9	74567.1	73575.1	71780.9	73118.6
0.0026	74993.2	74449.5	73425.8	71532.6	72724.7
0.0027	74938.5	74382.1	73338.9	71413.2	72432.4
0.0028	74931.9	74364.0	73297.2	71312.8	72235.1
0.0029	74928.7	74360.1	73301.2	71316.1	72116.4
0.0030	74949.8	74385.2	73334.9	71361.1	72053.5
0.0031	74966.6	74417.2	73397.8	71479.6	72058.2
0.0032	75018.7	74492.3	73511.3	71623.4	72132.5
0.0033	75089.0	74581.9	73646.2	71865.6	72256.6
0.0034	75209.6	74730.0	73851.6	72307.7	72419.4
0.0035	75364.4	74916.3	74112.4	72943.4	72664.3
0.0036	75539.7	75125.2	74397.6	73705.8	72984.4
0.0037	75722.7	75359.0	74742.4	74594.1	73320.6
0.0038	75916.1	75598.5	75083.0	75325.7	73721.9
0.0039	76106.3	75840.6	75431.8	75922.5	74162.6
0.0040	76307.0	76089.6	75780.6	76490.0	74635.5
0.0041	76513.8	76344.6	76133.4	77004.3	75143.0
0.0042	76726.4	76601.3	76480.1	77437.3	75677.4
0.0043	76947.1	76878.2	76872.5	77978.6	76228.7
0.0044	77182.8	77167.9	77273.1	78604.2	76792.0
0.0045	77409.0	77446.3	77659.4	79145.0	77352.2
0.0046	77633.7	77722.0	78035.1	79642.7	77962.0
0.0047	77839.5	77968.7	78361.7	80022.9	78547.2
0.0048	78035.8	78220.6	78733.9	80665.4	79137.4
0.0049	78284.3	78538.4	79185.3	81620.7	79689.9
0.0050	78500.0	78792.9	79522.7	82199.4	80247.2
0.0051	78668.0	78987.1	79774.3	82401.1	80772.7
0.0052	78816.2	79167.4	80007.3	82530.9	81270.1
0.0053	78922.1	79302.7	80195.9	82689.7	81728.6
0.0054	79011.9	79426.8	80383.0	82922.6	82111.3
0.0055	79112.0	79555.6	80563.9	83212.0	82475.9
0.0056	79200.6	79666.2	80724.0	83510.4	82766.2
0.0057	79304.0	79784.5	80873.3	83750.6	83001.7
0.0058	79379.5	79863.2	80965.5	83880.8	83175.6
0.0059	79412.7	79897.2	81003.2	83902.1	83283.3
0.0060	79396.5	79881.5	80984.3	83829.0	83323.7
0.0061	79337.5	79821.0	80915.6	83693.9	83311.6
0.0062	79268.5	79749.4	80831.0	83533.5	83222.1
0.0063	79203.9	79669.3	80721.9	83354.5	83087.9
0.0064	79147.7	79590.0	80598.3	83147.0	82857.6
0.0065	79076.8	79492.6	80452.5	82894.4	82591.0
0.0066	78976.0	79359.7	80259.3	82572.7	82265.8
0.0067	78831.2	79188.8	80032.0	82198.1	81894.6
0.0068	78662.6	78992.6	79775.9	81780.0	81477.3
0.0069	78482.8	78776.9	79488.3	81328.0	81010.9
0.0070	78304.2	78559.4	79193.1	80854.7	80512.8
0.0071	78134.9	78345.7	78892.1	80364.3	79988.0
0.0072	77958.5	78123.3	78581.5	79861.2	79438.4
0.0073	77771.5	77891.8	78262.6	79348.1	78880.5
0.0074	77570.1	77647.2	77931.7	78823.1	78310.6
0.0075	77354.0	77389.2	77589.0	78288.6	77725.2
0.0076	77140.8	77134.4	77249.9	77753.5	77145.5
0.0077	76939.8	76888.7	76915.4	77222.1	76569.5
0.0078	76750.1	76652.8	76589.4	76696.2	76008.9
0.0079	76571.3	76428.7	76276.8	76182.2	75466.6
0.0080	76392.6	76208.7	75974.9	75691.9	74953.1
0.0081	76216.1	75996.0	75688.9	75238.6	74461.4
0.0082	76046.9	75793.2	75418.4	74820.8	74001.2
0.0083	75895.8	75612.6	75177.6	74442.8	73578.4
0.0084	75763.3	75446.7	74947.7	74087.7	73165.8
0.0085	75640.7	75294.1	74737.5	73741.6	72817.4
0.0086	75534.8	75162.0	74551.5	73424.0	72491.3
0.0087	75429.8	75033.6	74377.8	73149.3	72205.2
0.0088	75336.1	74922.5	74230.9	72923.0	71954.8
0.0089	75258.2	74830.8	74109.4	72737.6	71740.2
0.0090	75195.8	74755.6	74009.8	72587.3	71575.3
0.0091	75158.6	74708.0	73940.5	72469.8	71457.4
0.0092	75134.6	74677.1	73896.6	72389.9	71370.1
0.0093	75124.5	74662.6	73874.9	72351.5	71340.2
0.0094	75121.9	74662.3	73877.0	72358.1	71346.7
0.0095	75126.6	74672.9	73899.5	72408.2	71400.0
0.0096	75147.0	74702.5	73945.1	72492.0	71485.7
0.0097	75181.0	74746.4	74009.0	72600.0	71616.3
0.0098	75235.6	74813.4	74099.8	72734.6	71784.9
0.0099	75304.7	74895.8	74208.8	72896.7	71992.1
0.0100	75384.5	74993.2	74340.7	73098.5	72234.3
0.0101	75476.3	75106.2	74494.7	73341.9	72511.9
0.0102	75578.6	75232.6	74667.5	73617.3	72819.8
0.0103	75692.4	75371.7	74856.0	73914.1	73156.9
0.0104	75817.6	75522.9	75058.4	74224.6	73522.0
0.0105	75951.7	75684.2	75273.5	74553.6	73910.0
0.0106	76091.8	75853.1	75499.1	74900.7	74318.9
0.0107	76235.0	76027.3	75734.5	75263.4	74743.1
0.0108	76379.2	76202.9	75972.3	75638.3	75180.1
0.0109	76525.5	76382.6	76217.0	76026.6	75628.0
0.0110	76674.7	76565.2	76465.2	76415.3	76087.8
0.0111	76824.9	76747.0	76709.7	76793.1	76543.7
0.0112	76972.4	76925.8	76950.7	77165.7	77000.8
0.0113	77118.0	77102.5	77188.4	77532.8	77455.2
0.0114	77255.8	77270.2	77414.9	77881.7	77895.9
0.0115	77386.3	77429.9	77631.9	78218.3	78320.8
0.0116	77511.1	77582.9	77840.0	78540.9	78735.0
0.0117	77630.0	77728.1	78036.6	78846.2	79122.9
0.0118	77742.8	77865.4	78222.0	79131.2	79474.0
0.0119	77845.6	77990.5	78391.7	79395.3	79799.3
0.0120	77934.7	78097.9	78536.2	79618.6	80076.6
0.0121	78009.6	78190.9	78664.4	79823.4	80328.4
0.0122	78072.6	78269.1	78770.9	79984.1	80552.3
0.0123	78117.5	78324.5	78848.0	80102.3	80723.5
0.0124	78151.1	78366.3	78906.4	80197.0	80845.1
0.0125	78176.3	78397.9	78949.5	80263.7	80937.1
0.0126	78185.6	78407.5	78961.3	80285.9	80957.3
0.0127	78174.2	78393.5	78943.9	80264.9	80966.9
0.0128	78149.0	78363.9	78904.0	80198.6	80918.2
0.0129	78102.1	78308.3	78831.7	80082.5	80825.0
0.0130	78042.6	78238.8	78742.0	79945.7	80675.8
0.0131	77975.7	78159.9	78639.7	79797.0	80480.5
0.0132	77901.9	78071.3	78522.5	79625.1	80240.1
0.0133	77819.8	77970.1	78386.5	79423.8	79937.0
0.0134	77728.7	77858.4	78234.7	79192.7	79617.6
0.0135	77621.9	77727.5	78058.1	78924.2	79280.5
0.0136	77500.7	77581.1	77862.2	78622.5	78910.7
0.0137	77368.1	77422.4	77651.9	78298.6	78520.3
0.0138	77229.5	77256.1	77431.3	77962.4	78103.7
0.0139	77089.0	77087.5	77207.5	77624.0	77678.7
0.0140	76951.2	76920.0	76982.8	77282.8	77261.1
0.0141	76812.2	76750.6	76755.1	76935.6	76826.6
0.0142	76670.2	76578.0	76524.0	76584.1	76379.2
0.0143	76527.7	76406.0	76294.0	76233.4	75940.8
0.0144	76383.7	76233.8	76066.2	75888.5	75509.4
0.0145	76246.5	76067.6	75843.3	75549.5	75081.0
0.0146	76115.3	75907.7	75627.9	75218.2	74651.1
0.0147	75994.1	75757.5	75421.6	74895.2	74235.0
0.0148	75878.2	75613.5	75223.4	74584.0	73848.7
0.0149	75767.9	75477.6	75037.7	74292.8	73483.6
0.0150	75664.1	75350.2	74863.9	74022.8	73139.5
0.0151	75565.3	75230.4	74703.0	73774.7	72828.9
0.0152	75476.9	75122.7	74557.6	73550.3	72550.6
0.0153	75400.1	75028.8	74429.5	73351.4	72297.6
0.0154	75334.4	74947.9	74319.4	73179.4	72073.9
0.0155	75281.3	74881.0	74226.2	73031.6	71887.9
0.0156	75236.5	74826.2	74152.3	72917.9	71744.4
0.0157	75201.5	74784.0	74095.9	72834.9	71633.5
0.0158	75176.2	74755.4	74060.8	72786.9	71551.6
0.0159	75167.0	74744.7	74047.3	72771.2	71503.0
0.0160	75169.8	74748.0	74052.7	72785.4	71491.8
0.0161	75187.4	74768.0	74078.0	72828.4	71520.8
0.0162	75214.3	74800.5	74121.3	72895.6	71585.0
0.0163	75247.5	74840.9	74176.9	72984.1	71680.8
0.0164	75289.4	74892.3	74246.7	73092.9	71814.4
0.0165	75337.8	74953.3	74331.2	73224.5	71984.8
0.0166	75396.4	75026.0	74431.4	73379.8	72183.8
0.0167	75465.7	75111.5	74548.0	73559.8	72412.1
0.0168	75545.7	75208.6	74678.8	73760.3	72669.9
0.0169	75633.6	75315.0	74821.2	73978.5	72952.1
0.0170	75728.3	75431.0	74978.1	74217.0	73260.9
0.0171	75828.3	75553.7	75144.8	74472.9	73598.5
0.0172	75934.2	75683.4	75320.2	74741.6	73956.3
0.0173	76046.0	75820.1	75504.7	75021.7	74321.5
0.0174	76163.0	75961.8	75694.8	75310.0	74700.9
0.0175	76284.1	76108.7	75891.5	75607.9	75088.0
0.0176	76407.1	76257.7	76091.1	75910.9	75479.0
0.0177	76529.2	76406.4	76291.4	76215.8	75874.7
0.0178	76650.0	76554.3	76491.1	76519.5	76272.6
0.0179	76768.5	76699.1	76687.2	76819.1	76668.4
0.0180	76884.8	76841.2	76879.0	77111.1	77056.1
0.0181	76997.8	76977.8	77061.5	77385.4	77431.5
0.0182	77103.2	77105.5	77232.9	77644.2	77795.1
0.0183	77202.7	77226.8	77396.3	77891.3	78143.9
0.0184	77293.7	77338.3	77547.4	78119.9	78477.5
0.0185	77376.6	77440.3	77686.2	78331.8	78793.3
0.0186	77452.5	77533.7	77813.8	78527.9	79088.3
0.0187	77521.8	77618.3	77928.4	78705.0	79344.0
0.0188	77582.9	77693.1	78029.6	78861.2	79564.1
0.0189	77634.2	77755.6	78114.8	78994.0	79737.4
0.0190	77673.3	77802.1	78175.9	79086.9	79853.0
0.0191	77694.0	77827.3	78209.6	79136.6	79936.6
0.0192	77699.0	77833.5	78217.9	79146.0	79995.5
0.0193	77690.6	77825.0	78207.5	79123.5	80024.2
0.0194	77672.9	77804.3	78181.0	79079.8	80013.7
0.0195	77649.9	77776.9	78144.3	79020.5	79954.4
0.0196	77619.8	77738.9	78093.2	78951.3	79840.8
0.0197	77583.9	77694.1	78031.9	78864.7	79675.5
0.0198	77535.9	77633.6	77948.7	78742.7	79469.0
0.0199	77469.9	77552.3	77839.0	78579.9	79228.9
0.0200	77387.3	77452.3	77705.8	78380.7	78961.1
0.0201	77291.7	77339.3	77557.4	78156.4	78671.6
0.0202	77189.0	77216.4	77395.3	77912.7	78365.8
0.0203	77083.4	77089.0	77225.8	77658.4	78038.7
0.0204	76978.2	76961.0	77054.6	77402.6	77694.2
0.0205	76873.2	76832.9	76883.0	77148.9	77334.2
0.0206	76765.4	76702.5	76710.1	76897.4	76956.7
0.0207	76654.6	76569.4	76535.0	76644.8	76571.2
0.0208	76539.7	76431.0	76352.9	76383.8	76174.5
